epoch,accuracy,f1_class_0,f1_class_1,f1_class_2,f1_class_3,f1_class_4,loss,lr,val_accuracy,val_f1_class_0,val_f1_class_1,val_f1_class_2,val_f1_class_3,val_f1_class_4,val_loss
0,0.5412499308586121,0.44517871737480164,0.4762294888496399,0.48571541905403137,0.6366440057754517,0.635131299495697,1.143022894859314,0.000100000005,0.07728328555822372,0.0,0.06245800107717514,0.15278802812099457,0.08760809898376465,0.12918564677238464,2.601801633834839
1,0.701612114906311,0.5896010994911194,0.6707282662391663,0.6711033582687378,0.7546350955963135,0.8071900010108948,0.7801982164382935,0.000100000005,0.11699090152978897,0.0002722440694924444,0.08537109196186066,0.24992243945598602,0.09690256416797638,0.3549726605415344,2.7744505405426025
2,0.7486000061035156,0.6432788372039795,0.7285709381103516,0.7242642641067505,0.7907947897911072,0.8435300588607788,0.6769630908966064,0.000100000005,0.16697756946086884,0.03878796473145485,0.09054935723543167,0.3701992630958557,0.08245441317558289,0.5796612501144409,2.3307740688323975
3,0.7740440964698792,0.6746589541435242,0.7566471099853516,0.7533064484596252,0.8109413981437683,0.863641619682312,0.613991379737854,0.000100000005,0.39917007088661194,0.44707995653152466,0.13748595118522644,0.45576101541519165,0.08684042096138,0.7085311412811279,1.403252124786377
4,0.7935885190963745,0.7009854316711426,0.7755308747291565,0.7752593755722046,0.8267332315444946,0.879548192024231,0.5654294490814209,0.000100000005,0.5886092782020569,0.6793296337127686,0.18278424441814423,0.5800328850746155,0.11642637848854065,0.7751150131225586,0.9809877872467041
5,0.8112834095954895,0.7247208952903748,0.7920004725456238,0.7951781153678894,0.8434920310974121,0.8920442461967468,0.5242361426353455,0.000100000005,0.6351315379142761,0.7263632416725159,0.19146466255187988,0.6260082721710205,0.1300744116306305,0.8036041259765625,0.8607175350189209
6,0.8232837319374084,0.7397616505622864,0.8034141063690186,0.808784544467926,0.8535625338554382,0.9025946855545044,0.4922138452529907,0.000100000005,0.6469334363937378,0.7372259497642517,0.19689401984214783,0.6341736912727356,0.13382093608379364,0.8140620589256287,0.838148295879364
7,0.8337303400039673,0.754917562007904,0.8140258193016052,0.8201668858528137,0.8620110750198364,0.9096265435218811,0.46443071961402893,0.000100000005,0.6469714641571045,0.736825704574585,0.19418886303901672,0.6398724913597107,0.13688789308071136,0.8211404085159302,0.8347413539886475
8,0.8431081771850586,0.7669206857681274,0.8236808776855469,0.8306888937950134,0.8693061470985413,0.9178435802459717,0.44079920649528503,0.000100000005,0.6414512395858765,0.7310746312141418,0.18716742098331451,0.6521113514900208,0.13887223601341248,0.8259404897689819,0.8488669991493225
9,0.8507390022277832,0.7761975526809692,0.8303107023239136,0.8399704694747925,0.8769784569740295,0.9236581921577454,0.4193652868270874,0.000100000005,0.6423268914222717,0.7317095994949341,0.18571914732456207,0.6594616770744324,0.14052297174930573,0.8293870687484741,0.8472437262535095
10,0.8574944138526917,0.7843338847160339,0.8364307284355164,0.8476558923721313,0.8842269778251648,0.9281058311462402,0.40164175629615784,0.000100000005,0.6368446946144104,0.7260878086090088,0.18484193086624146,0.6592369079589844,0.1383582502603531,0.8261617422103882,0.8711808323860168
11,0.863875150680542,0.7934190034866333,0.8440902233123779,0.8542153835296631,0.8881979584693909,0.933165431022644,0.3843570947647095,0.000100000005,0.6317432522773743,0.7209529876708984,0.18535803258419037,0.6507949233055115,0.13558095693588257,0.8218474984169006,0.8936235308647156
12,0.8693488240242004,0.8003877997398376,0.8506426811218262,0.8607895374298096,0.8923271894454956,0.9368555545806885,0.36916452646255493,0.000100000005,0.6495983600616455,0.7380878925323486,0.19223755598068237,0.6604559421539307,0.144041508436203,0.8301613330841064,0.8497974872589111
13,0.8735408782958984,0.8050805330276489,0.8558698892593384,0.8655210137367249,0.895516037940979,0.9402207732200623,0.35672375559806824,0.000100000005,0.6308295726776123,0.7199143171310425,0.17999304831027985,0.6772655844688416,0.13974550366401672,0.8160375356674194,0.907429575920105
14,0.8792353868484497,0.812275230884552,0.8613136410713196,0.8717969655990601,0.9021590352058411,0.9434735178947449,0.34269437193870544,0.000100000005,0.6685575246810913,0.7560027837753296,0.1992489993572235,0.688075602054596,0.14944782853126526,0.8358097076416016,0.8122316598892212
15,0.8841372728347778,0.81780606508255,0.8675387501716614,0.877949595451355,0.9059367179870605,0.9464309215545654,0.33049485087394714,0.000100000005,0.6530627608299255,0.7413452863693237,0.1935175061225891,0.6692082285881042,0.14338356256484985,0.8347853422164917,0.851408064365387
16,0.8876470923423767,0.8224749565124512,0.8708294630050659,0.8820289969444275,0.9091200232505798,0.9491156339645386,0.32024434208869934,0.000100000005,0.6629992127418518,0.7508312463760376,0.2000499665737152,0.6655399799346924,0.14585278928279877,0.8443780541419983,0.8319751620292664
17,0.8909873366355896,0.8268696665763855,0.8738733530044556,0.8861531019210815,0.9129107594490051,0.9505500793457031,0.3105241656303406,0.000100000005,0.6813111305236816,0.7676283121109009,0.2085915356874466,0.6846478581428528,0.15000607073307037,0.8499516844749451,0.7876061797142029
18,0.8945010304450989,0.8310534358024597,0.8782202005386353,0.8898769021034241,0.9148220419883728,0.9543083906173706,0.30069056153297424,0.000100000005,0.6757528185844421,0.7627638578414917,0.20390087366104126,0.6982423067092896,0.14966224133968353,0.8450822830200195,0.7982282042503357
19,0.8980581760406494,0.8373154997825623,0.8815112113952637,0.8935199975967407,0.9178979396820068,0.9560866951942444,0.29138174653053284,0.000100000005,0.7084174156188965,0.7918670177459717,0.21941155195236206,0.7030638456344604,0.1698794662952423,0.8617556691169739,0.7125986218452454
20,0.9018755555152893,0.842464029788971,0.8861395716667175,0.8973685503005981,0.9205666184425354,0.9590144753456116,0.28181588649749756,0.000100000005,0.692313551902771,0.7774911522865295,0.20896972715854645,0.7086707353591919,0.1621212661266327,0.8513138294219971,0.7547696828842163
21,0.9039104580879211,0.8444617986679077,0.8886321783065796,0.8998278379440308,0.9225392937660217,0.9603191018104553,0.2741977870464325,0.000100000005,0.7057144045829773,0.7893351912498474,0.21566319465637207,0.7252989411354065,0.16759681701660156,0.8592996001243591,0.7256765961647034
22,0.9065408110618591,0.8484979867935181,0.8911486864089966,0.9018797874450684,0.9254723787307739,0.962125301361084,0.26709073781967163,0.000100000005,0.70343017578125,0.787042498588562,0.21707621216773987,0.7178152799606323,0.16443990170955658,0.8625501990318298,0.7329221963882446
23,0.909569501876831,0.8531190752983093,0.894530713558197,0.9050339460372925,0.927638828754425,0.9639824032783508,0.259602814912796,0.000100000005,0.7365515828132629,0.8160815834999084,0.23521199822425842,0.7292822599411011,0.17979742586612701,0.876426637172699,0.6485390067100525
24,0.9116004705429077,0.8541353940963745,0.8969330787658691,0.908174991607666,0.9296931624412537,0.9658316969871521,0.2535422146320343,0.000100000005,0.739673376083374,0.8185608386993408,0.23918816447257996,0.7416544556617737,0.1768171787261963,0.8755146265029907,0.6488162875175476
25,0.9149091243743896,0.8602812886238098,0.9006406664848328,0.9109135866165161,0.9323641657829285,0.9672073721885681,0.24576424062252045,0.000100000005,0.7577568888664246,0.8337510228157043,0.25304362177848816,0.7445357441902161,0.1821746826171875,0.8975158333778381,0.610263466835022
26,0.9170781373977661,0.8638612031936646,0.9026075601577759,0.9135124087333679,0.9340699315071106,0.9685909152030945,0.23944003880023956,0.000100000005,0.741500735282898,0.8198662996292114,0.23716773092746735,0.7411808371543884,0.18355372548103333,0.8815643787384033,0.644233763217926
27,0.9194639921188354,0.8664026856422424,0.9058228135108948,0.9163852334022522,0.9361162781715393,0.9698477983474731,0.23358450829982758,0.000100000005,0.7700536847114563,0.8436320424079895,0.2620846629142761,0.7588999271392822,0.18731485307216644,0.8992388844490051,0.5795406699180603
28,0.9204656481742859,0.8679211735725403,0.9062601923942566,0.9171717762947083,0.9377099871635437,0.9704052209854126,0.22938679158687592,0.000100000005,0.7610309720039368,0.8360699415206909,0.2518137991428375,0.7561166286468506,0.19031621515750885,0.8945710062980652,0.6008318066596985
29,0.9225596785545349,0.8712649941444397,0.9085145592689514,0.9190184473991394,0.9395260810852051,0.9721132516860962,0.22269916534423828,0.000100000005,0.7695206999778748,0.8430588245391846,0.2624860107898712,0.7494373917579651,0.18966302275657654,0.902099072933197,0.5829010009765625
30,0.9242475628852844,0.8730951547622681,0.91071617603302,0.9219772219657898,0.9404826164245605,0.9724552035331726,0.21916303038597107,0.000100000005,0.7663227915763855,0.8404762744903564,0.26082417368888855,0.751713216304779,0.18956591188907623,0.8908363580703735,0.5918062329292297
31,0.9262390732765198,0.8758512735366821,0.9117874503135681,0.923805296421051,0.9427990317344666,0.9743536114692688,0.21465131640434265,0.000100000005,0.781855583190918,0.8529408574104309,0.2724837064743042,0.7667883634567261,0.1965092122554779,0.9051884412765503,0.5547388792037964
32,0.9276154041290283,0.8776347637176514,0.9140875339508057,0.9254035353660583,0.9437766671180725,0.9747364521026611,0.2087816596031189,0.000100000005,0.7640385031700134,0.8382510542869568,0.25449463725090027,0.7560433149337769,0.1932898610830307,0.9061697721481323,0.6036924719810486
33,0.9299736618995667,0.8826342821121216,0.91705322265625,0.9266833066940308,0.9460752010345459,0.9750689268112183,0.20353475213050842,0.000100000005,0.7475159168243408,0.8247312903404236,0.23441365361213684,0.7789691686630249,0.1854802966117859,0.894766092300415,0.6435421109199524
34,0.9307229518890381,0.882473886013031,0.9177325963973999,0.9286829829216003,0.9462150931358337,0.9762302041053772,0.1997157782316208,0.000100000005,0.7548254728317261,0.8304557800292969,0.24296849966049194,0.7670642137527466,0.19389162957668304,0.8972559571266174,0.62857586145401
35,0.9324581027030945,0.8849654197692871,0.919537365436554,0.9302796125411987,0.9481968283653259,0.9771265983581543,0.19655810296535492,0.000100000005,0.7705866694450378,0.8434606194496155,0.25426986813545227,0.7831871509552002,0.19865377247333527,0.9038425087928772,0.588213324546814
36,0.9340158104896545,0.8868892192840576,0.9212709665298462,0.9325795769691467,0.9494910836219788,0.9778464436531067,0.192574605345726,0.000100000005,0.7634674906730652,0.837591290473938,0.2513374090194702,0.7671779990196228,0.19736641645431519,0.902320146560669,0.6083177328109741
37,0.9355893135070801,0.8897520899772644,0.922489583492279,0.9335024952888489,0.951055109500885,0.9791293740272522,0.18832075595855713,0.000100000005,0.7877565026283264,0.8571329116821289,0.2755667269229889,0.7769374251365662,0.20088675618171692,0.9209555983543396,0.5477819442749023
38,0.9365713000297546,0.8913407325744629,0.9243454337120056,0.9347644448280334,0.9515476822853088,0.978975772857666,0.184926837682724,0.000100000005,0.8201545476913452,0.8818358182907104,0.3026925027370453,0.81077641248703,0.23306618630886078,0.9304720759391785,0.466053307056427
39,0.9375690221786499,0.8917908668518066,0.9245086908340454,0.9367577433586121,0.9530975222587585,0.9798141717910767,0.18196843564510345,0.000100000005,0.8027563095092773,0.8685998916625977,0.28713172674179077,0.8025515079498291,0.21995188295841217,0.9183583855628967,0.5101125240325928
40,0.9389374256134033,0.8950991034507751,0.9274793863296509,0.9368169903755188,0.9530283808708191,0.9803245067596436,0.1785009354352951,0.000100000005,0.7900788187980652,0.8587455153465271,0.2772446870803833,0.7834803462028503,0.20910361409187317,0.9188913106918335,0.5477083325386047
41,0.940262496471405,0.8959115147590637,0.9283636808395386,0.9392849802970886,0.9549713730812073,0.9809516668319702,0.1746782660484314,0.000100000005,0.8155099749565125,0.8783140778541565,0.2981785535812378,0.8086028695106506,0.22835856676101685,0.9290218353271484,0.47782787680625916
42,0.9415244460105896,0.8978714346885681,0.9296615123748779,0.9404823780059814,0.955991804599762,0.9818156957626343,0.1721552014350891,0.000100000005,0.8021852374076843,0.8679810762405396,0.2849593758583069,0.7867520451545715,0.22478428483009338,0.9341769814491272,0.5117819905281067
43,0.9417728781700134,0.8984138369560242,0.9308468103408813,0.9406647682189941,0.955166220664978,0.9820501208305359,0.1697131246328354,0.000100000005,0.7994441986083984,0.8657481670379639,0.28448373079299927,0.7920302748680115,0.2225075662136078,0.9223864674568176,0.5262576341629028
44,0.9433897733688354,0.9007138609886169,0.9320290684700012,0.9421738386154175,0.9567210078239441,0.983632504940033,0.16697971522808075,0.000100000005,0.7896981239318848,0.8584811091423035,0.27052587270736694,0.8045501112937927,0.21404002606868744,0.9126538634300232,0.5489367842674255
45,0.9438629746437073,0.9007185697555542,0.9327788949012756,0.9434814453125,0.9579399824142456,0.9826931953430176,0.16383269429206848,0.000100000005,0.8144059181213379,0.877259373664856,0.29419004917144775,0.8168615102767944,0.23119911551475525,0.9333283305168152,0.4834442734718323
46,0.9450500011444092,0.9033433198928833,0.9330400228500366,0.9446775317192078,0.9589696526527405,0.9835808277130127,0.16183222830295563,0.000100000005,0.8124262094497681,0.87593674659729,0.29443293809890747,0.8262501955032349,0.2298138290643692,0.9134405851364136,0.4930010735988617
47,0.945582389831543,0.9044010043144226,0.9346287250518799,0.9446868300437927,0.9583668112754822,0.9841437935829163,0.15974220633506775,0.000100000005,0.8099897503852844,0.8739938139915466,0.2930459976196289,0.811991810798645,0.23181885480880737,0.9177486896514893,0.5005089044570923
48,0.9467023611068726,0.9059041142463684,0.9356398582458496,0.9456584453582764,0.9605209827423096,0.9842552542686462,0.15609633922576904,0.000100000005,0.824456512928009,0.8847342729568481,0.3065858483314514,0.819840669631958,0.2520125210285187,0.9260929822921753,0.46034011244773865
49,0.9472189545631409,0.9060624837875366,0.9359921216964722,0.9470107555389404,0.9605842232704163,0.9848641753196716,0.15455856919288635,0.000100000005,0.8058019280433655,0.8705005645751953,0.2865394055843353,0.7962616682052612,0.23480656743049622,0.9316602945327759,0.5127813816070557
50,0.9488121867179871,0.909701406955719,0.93893963098526,0.9480726718902588,0.9607993364334106,0.9851424694061279,0.15181612968444824,0.000100000005,0.8141775131225586,0.8771105408668518,0.2952537536621094,0.8030842542648315,0.2380552440881729,0.9344923496246338,0.4912097752094269
51,0.9490054249763489,0.9088549017906189,0.938442051410675,0.9489201903343201,0.961554765701294,0.9857357740402222,0.14991866052150726,0.000100000005,0.812007486820221,0.8753350973129272,0.29575106501579285,0.8025484681129456,0.2364019751548767,0.9287906289100647,0.5026653409004211
52,0.9502042531967163,0.9117529392242432,0.9395516514778137,0.9499669671058655,0.9625450968742371,0.9858773350715637,0.1475735604763031,0.000100000005,0.8204591274261475,0.8816867470741272,0.2987283766269684,0.8070011138916016,0.25112998485565186,0.9436009526252747,0.47476887702941895
53,0.9508510231971741,0.9125375151634216,0.9406914710998535,0.9503437876701355,0.9630857706069946,0.9862533807754517,0.14621227979660034,0.000100000005,0.8211063146591187,0.8822414875030518,0.3006109893321991,0.8146593570709229,0.24480146169662476,0.9371028542518616,0.4744793176651001
54,0.95130455493927,0.9132571220397949,0.9415574073791504,0.9503399133682251,0.9633849263191223,0.9865743517875671,0.14397498965263367,0.000100000005,0.8225530385971069,0.8833945393562317,0.3042035400867462,0.8199436664581299,0.24801026284694672,0.9289109110832214,0.4712373912334442
55,0.9520853757858276,0.9138405919075012,0.9424014091491699,0.9517329931259155,0.9644259810447693,0.9867886900901794,0.14145956933498383,0.000100000005,0.8257128596305847,0.8857746124267578,0.31332728266716003,0.8250014185905457,0.24169111251831055,0.9229319095611572,0.4612829089164734
56,0.9523811340332031,0.9145388603210449,0.9425318837165833,0.9520516395568848,0.9640592932701111,0.9873286485671997,0.1401238739490509,0.000100000005,0.821905791759491,0.8828046321868896,0.2982657253742218,0.8190581202507019,0.25348562002182007,0.93760746717453,0.47529348731040955
57,0.9534222483634949,0.9172336459159851,0.9440307021141052,0.9526210427284241,0.9649654626846313,0.9869685173034668,0.13830481469631195,0.000100000005,0.8316899538040161,0.8901538252830505,0.31613290309906006,0.8258488178253174,0.252987265586853,0.9355924129486084,0.4475279152393341
58,0.9540847539901733,0.9172136783599854,0.9441661238670349,0.9540094137191772,0.9656686186790466,0.988006591796875,0.13604925572872162,0.000100000005,0.8387330174446106,0.8953090906143188,0.3223341703414917,0.8246955275535583,0.2669365704059601,0.9432950615882874,0.4322514235973358
59,0.9542819261550903,0.9182588458061218,0.9454038739204407,0.9534367322921753,0.965679943561554,0.9873855113983154,0.13569997251033783,0.000100000005,0.8426923751831055,0.8980793356895447,0.3292381167411804,0.8266463875770569,0.2706822156906128,0.9448042511940002,0.4256085157394409
60,0.9552363157272339,0.9187722206115723,0.945452094078064,0.9554573893547058,0.967093288898468,0.9882534742355347,0.13280010223388672,0.000100000005,0.8615372776985168,0.9118202924728394,0.3528396189212799,0.8484845757484436,0.2975854277610779,0.950469970703125,0.3711388111114502
61,0.9552047252655029,0.920001745223999,0.9461707472801208,0.9545127153396606,0.9661466479301453,0.9879308938980103,0.13200843334197998,0.000100000005,0.8581109642982483,0.9093681573867798,0.3566746711730957,0.8389517664909363,0.28028404712677,0.9480105638504028,0.3848645091056824
62,0.9566599130630493,0.921791672706604,0.9475953578948975,0.9569435119628906,0.9673133492469788,0.9885538816452026,0.1301981508731842,0.000100000005,0.8384665250778198,0.8951711654663086,0.3253057599067688,0.8224858045578003,0.2626418471336365,0.9427416324615479,0.43549829721450806
63,0.9568807482719421,0.9219145178794861,0.9479272365570068,0.9570159912109375,0.968124270439148,0.9884681701660156,0.12831832468509674,0.000100000005,0.8473750352859497,0.901702344417572,0.3371710479259491,0.8253896236419678,0.27448925375938416,0.9478857517242432,0.41072186827659607
64,0.9572041630744934,0.9227374196052551,0.9481537938117981,0.9574354887008667,0.9677769541740417,0.9888075590133667,0.1267821043729782,0.000100000005,0.8656108379364014,0.9148110151290894,0.363334059715271,0.8485190272331238,0.29494696855545044,0.9522939324378967,0.3632895052433014
65,0.9580757021903992,0.9236939549446106,0.9490631818771362,0.95826655626297,0.9688899517059326,0.989338219165802,0.12591327726840973,0.000100000005,0.8508775234222412,0.9041604995727539,0.34502920508384705,0.8409566879272461,0.27113157510757446,0.9425181746482849,0.40295958518981934
66,0.9585055112838745,0.9246059060096741,0.9495406746864319,0.9585638642311096,0.9693548083305359,0.9894784688949585,0.1250288337469101,0.000100000005,0.8694940209388733,0.9173362255096436,0.3710922598838806,0.8445543050765991,0.30980682373046875,0.9525274038314819,0.3577522337436676
67,0.958690881729126,0.9251086115837097,0.9506174921989441,0.9584152698516846,0.9685154557228088,0.9897159934043884,0.12284804880619049,0.000100000005,0.853123664855957,0.9057585597038269,0.3461109399795532,0.8357365727424622,0.2834163308143616,0.9434853792190552,0.4007967710494995
68,0.9585173726081848,0.9247907400131226,0.949359118938446,0.9585936665534973,0.9689323306083679,0.9898849725723267,0.1226128339767456,0.000100000005,0.8673239946365356,0.915840744972229,0.3609865605831146,0.8528348207473755,0.31475594639778137,0.9493808746337891,0.364492267370224
69,0.9597359299659729,0.9271377921104431,0.9506732821464539,0.9600047469139099,0.9698819518089294,0.9899709224700928,0.12035401165485382,0.000100000005,0.8825141787528992,0.9264307022094727,0.39821675419807434,0.8504336476325989,0.33186817169189453,0.9561817646026611,0.3269551396369934
70,0.9603984355926514,0.9270524382591248,0.9519017934799194,0.9609672427177429,0.9703910946846008,0.9906153678894043,0.11881785094738007,0.000100000005,0.8853694796562195,0.9285063147544861,0.40438559651374817,0.853606641292572,0.339692622423172,0.9564083814620972,0.3166850507259369
71,0.9610254764556885,0.9287995100021362,0.9530327916145325,0.961162805557251,0.9708839654922485,0.990239679813385,0.11742451041936874,0.000100000005,0.8800776600837708,0.9248904585838318,0.38720008730888367,0.8613483905792236,0.33131736516952515,0.9501733779907227,0.3273536264896393
72,0.960587739944458,0.9281927943229675,0.9522472023963928,0.9601906538009644,0.9707805514335632,0.9905239939689636,0.11699780821800232,0.000100000005,0.8694179058074951,0.9174308776855469,0.364296555519104,0.8561649918556213,0.31568628549575806,0.9505240321159363,0.36013445258140564
73,0.9612699747085571,0.9292183518409729,0.9531062245368958,0.9610925316810608,0.9712058305740356,0.9908068776130676,0.1158234104514122,0.000100000005,0.8674762845039368,0.9160327911376953,0.36603400111198425,0.848078191280365,0.3153425455093384,0.9441314339637756,0.36778774857521057
74,0.9615144729614258,0.9297689199447632,0.9527784585952759,0.9617023468017578,0.9717249870300293,0.9906647801399231,0.11413242667913437,0.000100000005,0.8768797516822815,0.9225758910179138,0.37511909008026123,0.8614903092384338,0.34208944439888,0.9505033493041992,0.3398093581199646
75,0.9618891477584839,0.9298174977302551,0.9539348483085632,0.9625899791717529,0.9716803431510925,0.9904634356498718,0.11365386843681335,0.000100000005,0.8674382567405701,0.9159701466560364,0.3637683093547821,0.8579791784286499,0.30801475048065186,0.9457705616950989,0.3664873540401459
76,0.9621927738189697,0.9304682612419128,0.953764796257019,0.9627202153205872,0.9721027612686157,0.9909907579421997,0.11282972246408463,0.000100000005,0.8800015449523926,0.9246304035186768,0.38755369186401367,0.8577320575714111,0.3327033817768097,0.9541297554969788,0.3340880274772644
77,0.9624254703521729,0.9309638738632202,0.9547128081321716,0.9624375104904175,0.9717103242874146,0.9913251399993896,0.11206458508968353,0.000100000005,0.8692275285720825,0.9171529412269592,0.3702506422996521,0.8477452397346497,0.313682496547699,0.9472483396530151,0.3661678433418274
78,0.9636874198913574,0.9335924386978149,0.9557732343673706,0.96359783411026,0.9733569025993347,0.991237998008728,0.10979180783033371,0.000100000005,0.8804964423179626,0.9249171614646912,0.3899332284927368,0.8591139316558838,0.33160635828971863,0.9555711150169373,0.33448612689971924
79,0.9634823203086853,0.9332482814788818,0.9559870362281799,0.9631094932556152,0.9727061986923218,0.9914938807487488,0.10916637629270554,0.000100000005,0.8748239278793335,0.9211740493774414,0.3782060444355011,0.8663581609725952,0.31564003229141235,0.9443386793136597,0.3460250198841095
80,0.9641172885894775,0.934102475643158,0.956787109375,0.9639829993247986,0.9732240438461304,0.991601824760437,0.10776977986097336,0.000100000005,0.8778315186500549,0.9231809973716736,0.38213247060775757,0.8588371276855469,0.3335835039615631,0.9509556293487549,0.34097760915756226
81,0.964298665523529,0.9337925910949707,0.9563164114952087,0.9648252129554749,0.9734408855438232,0.9921513795852661,0.10715410858392715,1.0000001e-05,0.8807629346847534,0.9252269268035889,0.38792455196380615,0.8612794876098633,0.3378809690475464,0.9515147805213928,0.3331895172595978
82,0.9641922116279602,0.9337863326072693,0.9566448926925659,0.9646289944648743,0.9732432961463928,0.9917498230934143,0.10718367248773575,1.0000001e-05,0.8834278583526611,0.927115797996521,0.39470094442367554,0.860934853553772,0.3399330973625183,0.9524141550064087,0.32561200857162476
83,0.9643183946609497,0.934319257736206,0.956490159034729,0.9644504189491272,0.9737988710403442,0.9917264580726624,0.10712918639183044,1.0000001e-05,0.8834659457206726,0.9271324872970581,0.3949907124042511,0.8603650331497192,0.3406365215778351,0.9526380300521851,0.3264010548591614
84,0.9644524455070496,0.935209333896637,0.9571103453636169,0.9646641612052917,0.9728419184684753,0.9915850758552551,0.10699018836021423,1.0000001e-05,0.8830090761184692,0.9267792105674744,0.3929407000541687,0.8607755899429321,0.34141576290130615,0.9531062841415405,0.3282657265663147
85,0.9646180868148804,0.9347225427627563,0.9566348195075989,0.9649484753608704,0.9739353656768799,0.9919176697731018,0.1071615219116211,1.0000001e-05,0.8845319151878357,0.9278280735015869,0.3951050639152527,0.8616413474082947,0.34796857833862305,0.9528969526290894,0.32422536611557007
